Time,Temperature,CaCO3,,,
1,850,9.1,,,
2,850,9.2,,,
3,850,9.2,,,
4,860,8.6,,,
5,870,8.2,,,
6,900,6.8,,,
7,920,6.1,,,
8,945,5.2,,,
9,970,4.3,,,
10,990,,,,
11,1000,3.7,,,
12,1010,3.3,,,
13,1020,,,,
14,1040,2.9,,,
15,1050,2.7,,,
16,1060,2.3,,,
17,1090,2.0,,,
18,1120,1.7,,,
19,1120,1.7,,,